49 102
49 112
49 122
54 131
59 97
61 139
69 94
71 143
78 89
81 145
87 84
91 148
97 79
100 153
105 71
110 155
113 64
119 160
122 59
129 160
130 51
138 165
140 49
145 173
150 49
155 177
160 52
164 182
168 59
174 185
177 64
182 54
183 190
192 54
192 195
201 200
202 54
210 205
212 54
215 64
215 74
215 84
219 210
223 90
228 215
229 367
233 94
235 223
235 375
239 347
239 357
243 94
245 227
245 375
249 337
253 94
254 232
254 327
255 375
259 292
259 302
259 312
260 365
262 99
262 239
264 257
264 267
264 277
265 355
269 247
269 387
269 397
270 335
270 345
272 99
274 377
275 320
275 405
279 357
279 367
280 285
280 295
280 305
282 99
284 337
284 347
285 270
285 405
289 300
289 310
289 320
292 99
294 275
294 285
295 405
300 385
300 395
302 99
305 355
305 365
305 375
310 320
310 335
310 345
312 99
315 305
320 285
320 295
322 99
325 265
325 275
330 250
332 99
335 235
342 99
345 235
352 99
355 235
362 99
365 235
372 99
375 235
382 99
385 235
392 99
394 230
402 99
404 230
412 99
412 224
422 99
422 219
432 99
432 215
439 223
442 99
444 232
449 241
449 251
449 267
449 347
452 99
454 276
454 286
454 297
454 317
454 327
454 337
454 356
459 306
462 99
464 360
472 99
474 357
479 347
480 330
482 99
485 240
485 250
485 260
485 270
485 280
485 290
485 300
485 310
485 320
492 99
494 255
497 265
501 104
505 114
505 272
509 282
514 119
514 291
514 301
519 310
519 320
519 330
519 367
519 377
520 127
520 137
522 340
524 350
525 146
525 156
525 166
525 176
525 186
525 196
525 206
525 216
525 385
528 226
533 235
535 385
537 245
540 255
540 265
540 275
540 285
540 295
545 304
545 314
545 324
545 387
550 333
550 343
550 353
550 363
550 373
