49 157
49 167
49 177
54 186
57 149
64 190
67 149
70 198
74 67
75 141
79 76
80 200
83 134
84 64
86 84
89 122
90 200
94 66
94 90
94 107
100 200
102 99
104 69
107 90
110 200
114 69
119 205
123 74
129 205
133 74
134 52
139 205
143 74
144 49
146 59
148 210
152 69
154 49
158 210
164 49
167 215
172 224
174 49
179 232
184 51
184 241
190 59
191 249
195 68
196 258
200 268
203 74
208 275
212 69
212 285
217 294
220 110
222 69
224 302
224 312
228 103
228 116
229 321
229 331
229 457
230 90
231 74
234 340
235 465
237 449
238 120
240 348
242 439
245 465
248 124
249 353
249 363
249 373
249 422
254 382
254 392
254 402
254 412
255 465
257 129
265 465
267 129
270 440
270 450
275 395
275 405
275 415
275 425
277 129
280 370
280 380
285 350
285 360
287 129
295 350
297 129
305 350
306 134
309 467
309 477
314 355
314 452
316 134
317 365
319 375
319 442
319 480
322 385
324 395
324 405
324 415
324 425
326 134
329 480
336 134
339 480
346 134
349 477
350 380
350 390
350 400
350 410
350 420
350 430
350 440
350 450
350 460
355 139
355 345
355 355
355 365
365 139
365 345
375 139
375 345
384 350
385 139
393 345
395 139
403 345
404 134
413 345
414 134
423 345
424 134
424 417
429 407
430 353
430 425
434 134
434 397
440 355
440 425
442 389
444 134
444 365
444 375
450 425
453 129
458 418
460 400
463 129
465 370
465 380
465 390
473 129
473 363
480 340
480 350
482 124
489 345
491 129
498 350
500 134
505 340
510 137
514 335
517 345
519 142
519 412
519 422
524 151
524 353
524 363
524 373
524 383
524 393
524 403
524 431
525 161
530 170
530 180
532 190
534 435
535 200
535 210
535 220
535 230
535 240
535 270
535 280
535 290
535 300
537 310
540 249
540 259
540 320
544 435
545 329
545 339
545 349
545 359
545 369
545 379
550 388
550 398
550 408
550 418
