49 212
49 222
49 232
49 242
49 252
54 202
57 259
59 192
66 264
67 184
69 172
74 162
74 270
79 152
84 107
84 117
84 127
84 137
84 270
89 97
94 270
97 89
102 264
105 81
107 254
113 74
115 245
122 69
125 240
132 69
134 235
142 64
142 229
152 64
152 224
161 59
162 220
170 54
170 227
179 49
179 232
185 95
187 239
189 49
190 104
194 90
195 245
198 110
199 49
204 87
204 250
205 118
209 49
213 125
213 255
214 85
219 49
220 263
222 79
223 129
228 270
229 49
232 74
232 134
237 275
239 49
240 65
241 139
245 282
249 51
251 139
252 290
260 144
262 294
264 304
269 149
269 313
269 512
269 522
274 322
274 332
274 502
277 529
279 151
279 341
279 351
279 361
279 371
279 482
279 492
284 380
284 390
284 400
284 410
284 420
284 430
284 440
284 450
284 460
284 470
287 529
289 154
297 524
299 154
305 515
309 154
309 537
310 480
310 490
310 500
314 527
315 395
315 405
315 415
315 425
315 435
315 445
315 455
315 465
318 159
319 517
319 540
320 375
320 385
324 400
324 410
324 482
324 492
324 502
328 160
329 419
329 429
329 439
329 449
329 459
329 469
329 540
338 164
339 540
348 165
349 540
358 169
359 537
360 365
360 375
360 385
360 395
360 405
360 415
360 425
360 435
360 445
360 455
360 465
360 475
360 485
360 495
360 505
360 515
360 525
365 350
368 170
370 335
378 174
380 335
388 174
389 330
398 174
399 327
408 174
409 325
418 174
419 322
428 174
429 325
435 333
438 174
443 340
448 174
449 472
450 348
454 462
455 357
457 169
459 447
459 475
462 365
464 437
467 169
467 374
469 384
469 394
469 404
469 414
469 424
469 475
477 169
479 472
485 455
487 169
489 477
490 440
494 467
495 395
495 405
495 415
495 425
495 485
496 174
499 452
504 442
505 395
505 485
506 174
509 405
509 415
509 425
515 179
515 485
523 185
524 480
530 193
530 315
530 325
530 335
530 445
530 455
530 465
535 300
535 344
535 354
535 415
535 425
535 435
538 200
540 290
540 363
540 373
540 383
540 393
540 403
542 210
545 220
545 275
550 229
550 239
550 249
550 259
