24 132
24 142
24 152
24 162
29 72
29 82
29 171
29 181
32 124
34 91
34 101
34 111
34 190
34 200
37 64
40 208
45 70
48 215
49 225
50 79
52 235
54 262
57 244
58 85
59 271
64 280
64 290
67 90
67 300
75 307
77 94
82 315
87 94
87 324
94 332
97 94
99 341
99 537
99 547
106 99
106 349
107 529
107 554
111 358
116 95
117 524
117 555
119 365
124 89
124 507
125 373
127 555
129 392
129 402
129 412
129 472
129 497
133 84
133 380
134 421
134 462
134 481
137 554
139 430
139 440
139 450
140 76
147 549
148 69
155 540
157 74
160 84
160 94
160 104
160 114
160 124
160 134
160 144
160 530
165 153
165 520
173 513
175 157
183 164
183 515
190 460
190 470
192 159
192 520
195 445
198 476
199 512
200 430
200 486
202 154
204 502
208 423
212 154
213 413
215 400
220 390
222 149
225 380
231 144
233 373
239 365
241 140
249 134
249 365
258 370
259 134
268 370
269 134
277 375
279 134
287 375
289 134
297 379
298 139
305 385
308 139
315 385
318 139
324 390
328 139
333 395
337 144
339 507
340 403
344 516
347 144
347 499
348 410
354 520
355 418
357 144
357 494
363 425
364 520
366 149
367 489
370 433
372 479
374 520
376 149
378 440
379 450
379 460
379 470
384 517
386 149
390 500
395 154
398 493
404 512
404 522
405 157
405 485
410 475
412 504
414 525
415 157
415 460
417 494
420 450
422 484
424 472
424 525
425 159
429 455
434 152
434 525
442 144
442 519
447 134
450 505
454 122
455 490
459 112
460 360
460 370
460 380
460 475
465 350
465 389
465 399
465 455
465 465
469 102
470 190
470 408
470 418
470 428
470 438
472 200
473 343
475 330
477 209
478 183
479 97
480 219
480 315
483 173
484 87
485 228
485 238
485 305
490 160
490 247
490 257
490 267
490 277
490 287
492 79
495 150
501 74
505 135
505 145
510 69
513 128
518 118
519 64
525 110
529 64
534 105
539 64
544 105
549 64
553 110
554 177
559 64
559 167
559 186
560 118
564 128
564 138
564 148
564 158
568 69
569 187
577 74
579 185
580 84
585 175
588 90
593 168
595 98
595 108
598 158
600 117
600 127
600 137
600 147
